# frequency  DOS
#THz  number
0 0.00991828
0.07 0.0109979
0.14 0.0112782
0.21 0.0109133
0.28 0.0101869
0.35 0.00935024
0.42 0.00854988
0.49 0.00785954
0.56 0.00733509
0.63 0.00702665
0.7 0.00695567
0.77 0.00710097
0.84 0.00740886
0.91 0.00780614
0.98 0.0082006
1.05 0.00848304
1.12 0.00855206
1.19 0.00835793
1.26 0.00793578
1.33 0.00740128
1.4 0.00691012
1.47 0.00660786
1.54 0.00659719
1.61 0.00692849
1.68 0.00759982
1.75 0.00855468
1.82 0.0096823
1.89 0.0108318
1.96 0.0118387
2.03 0.0125501
2.1 0.0128494
2.17 0.0126912
2.24 0.0121513
2.31 0.0114574
2.38 0.0109551
2.45 0.0109926
2.52 0.0117724
2.59 0.0132458
2.66 0.0151112
2.73 0.0169214
2.8 0.0182473
2.87 0.0188218
2.94 0.0186107
3.01 0.0178039
3.08 0.0167533
3.15 0.0158817
3.22 0.0155697
3.29 0.0160304
3.36 0.0172155
3.43 0.0188161
3.5 0.0203844
3.57 0.02152
3.64 0.0220142
3.71 0.0218743
3.78 0.0212375
3.85 0.0202602
3.92 0.0190666
3.99 0.0177776
4.06 0.0165586
4.13 0.0156114
4.2 0.0150882
4.27 0.0149936
4.34 0.0151627
4.41 0.0153425
4.48 0.0153187
4.55 0.0150058
4.62 0.0144616
4.69 0.0138475
4.76 0.0133662
4.83 0.0131961
4.9 0.0134342
4.97 0.0140642
5.04 0.0149662
5.11 0.0159638
5.18 0.0168838
5.25 0.0175994
5.32 0.0180435
5.39 0.0181924
5.46 0.0180405
5.53 0.0175908
5.6 0.0168746
5.67 0.0159888
5.74 0.0151121
5.81 0.0144699
5.88 0.0142489
5.95 0.014508
6.02 0.0151438
6.09 0.0159365
6.16 0.0166501
6.23 0.0171253
6.3 0.0173166
6.37 0.0172698
6.44 0.0170721
6.51 0.0168119
6.58 0.0165631
6.65 0.0163841
6.72 0.0163203
6.79 0.0163994
6.86 0.0166216
6.93 0.0169525
7 0.0173267
7.07 0.0176696
7.14 0.0179273
7.21 0.0180868
7.28 0.0181729
7.35 0.0182215
7.42 0.0182498
7.49 0.0182407
7.56 0.0181544
7.63 0.0179611
7.7 0.0176776
7.77 0.0173857
7.84 0.0172173
7.91 0.0173083
7.98 0.0177389
8.05 0.018493
8.12 0.0194554
8.19 0.0204487
8.26 0.0212912
8.33 0.0218484
8.4 0.0220628
8.47 0.0219598
8.54 0.0216344
8.61 0.0212248
8.68 0.0208747
8.75 0.0206925
8.82 0.0207251
8.89 0.0209596
8.96 0.0213562
9.03 0.0218879
9.1 0.0225575
9.17 0.0233774
9.24 0.0243331
9.31 0.0253646
9.38 0.0263817
9.45 0.0273
9.52 0.0280665
9.59 0.0286602
9.66 0.0290755
9.73 0.0293052
9.8 0.029334
9.87 0.0291474
9.94 0.0287502
10.01 0.0281844
10.08 0.0275313
10.15 0.0268894
10.22 0.026337
10.29 0.0258983
10.36 0.0255329
10.43 0.0251531
10.5 0.0246626
10.57 0.0239992
10.64 0.0231654
10.71 0.0222328
10.78 0.0213161
10.85 0.0205307
10.92 0.0199546
10.99 0.0196136
11.06 0.0194897
11.13 0.0195348
11.2 0.0196739
11.27 0.0198007
11.34 0.0197859
11.41 0.0195123
11.48 0.0189262
11.55 0.0180725
11.62 0.0170841
11.69 0.0161299
11.76 0.0153497
11.83 0.0148106
11.9 0.0144981
11.97 0.0143367
12.04 0.0142225
12.11 0.014056
12.18 0.0137673
12.25 0.0133307
12.32 0.012765
12.39 0.0121193
12.46 0.0114484
12.53 0.0107887
12.6 0.0101474
12.67 0.00950883
12.74 0.00885375
12.81 0.00818169
12.88 0.00752529
12.95 0.00695097
13.02 0.00654561
13.09 0.00639417
13.16 0.00655532
13.23 0.00704135
13.3 0.00780718
13.37 0.0087525
13.44 0.00973909
13.51 0.010622
13.58 0.0112872
13.65 0.0116835
13.72 0.0118337
13.79 0.0118148
13.86 0.0117181
13.93 0.0116076
14 0.0115041
14.07 0.0113976
14.14 0.0112727
14.21 0.0111228
14.28 0.0109425
14.35 0.010712
14.42 0.0103956
14.49 0.00996662
14.56 0.00944545
14.63 0.00891732
14.7 0.00850448
14.77 0.00829975
14.84 0.00830501
14.91 0.0084218
14.98 0.00850438
15.05 0.00843948
15.12 0.00820162
15.19 0.00785586
15.26 0.00751614
15.33 0.00728801
15.4 0.0072231
15.47 0.00730168
15.54 0.00744678
15.61 0.00756293
15.68 0.00758315
15.75 0.00750387
15.82 0.00739224
15.89 0.00736219
15.96 0.00753093
16.03 0.00797565
16.1 0.00870717
16.17 0.00966693
16.24 0.0107435
16.31 0.0118012
16.38 0.0127157
16.45 0.013408
16.52 0.013869
16.59 0.0141618
16.66 0.0143947
16.73 0.0146774
16.8 0.0150788
16.87 0.0156095
16.94 0.0162292
17.01 0.0168684
17.08 0.0174502
17.15 0.0179035
17.22 0.0181683
17.29 0.018199
17.36 0.0179726
17.43 0.0175074
17.5 0.0168858
17.57 0.0162607
17.64 0.0158221
17.71 0.0157261
17.78 0.0160212
17.85 0.0166213
17.92 0.0173484
17.99 0.0180184
18.06 0.0185151
18.13 0.018819
18.2 0.0189888
18.27 0.019124
18.34 0.0193292
18.41 0.0196892
18.48 0.020252
18.55 0.0210217
18.62 0.0219593
18.69 0.0229932
18.76 0.0240329
18.83 0.0249822
18.9 0.0257527
18.97 0.0262791
19.04 0.0265351
19.11 0.0265443
19.18 0.0263785
19.25 0.0261416
19.32 0.0259461
19.39 0.0258904
19.46 0.0260387
19.53 0.0264047
19.6 0.0269445
19.67 0.0275669
19.74 0.0281622
19.81 0.0286384
19.88 0.0289468
19.95 0.029085
20.02 0.0290797
20.09 0.0289619
20.16 0.0287483
20.23 0.0284394
20.3 0.0280306
20.37 0.0275297
20.44 0.0269709
20.51 0.0264182
20.58 0.0259539
20.65 0.0256525
20.72 0.0255532
20.79 0.0256456
20.86 0.0258766
20.93 0.0261714
21 0.0264566
21.07 0.0266738
21.14 0.0267835
21.21 0.0267637
21.28 0.0266069
21.35 0.0263214
21.42 0.0259355
21.49 0.0255011
21.56 0.0250878
21.63 0.0247654
21.7 0.024579
21.77 0.0245284
21.84 0.0245654
21.91 0.0246134
21.98 0.024603
22.05 0.0245059
22.12 0.0243478
22.19 0.0241928
22.26 0.0241053
22.33 0.0241133
22.4 0.0241942
22.47 0.02429
22.54 0.0243386
22.61 0.0243015
22.68 0.0241707
22.75 0.0239594
22.82 0.0236873
22.89 0.0233679
22.96 0.0230037
23.03 0.0225875
23.1 0.0221116
23.17 0.0215821
23.24 0.0210301
23.31 0.0205136
23.38 0.0201044
23.45 0.0198674
23.52 0.0198421
23.59 0.0200367
23.66 0.020435
23.73 0.0210065
23.8 0.021705
23.87 0.0224592
23.94 0.0231687
24.01 0.0237207
24.08 0.0240236
24.15 0.0240409
24.22 0.0238027
24.29 0.0233936
24.36 0.0229262
24.43 0.0225138
24.5 0.0222469
24.57 0.022174
24.64 0.0222926
24.71 0.0225523
24.78 0.0228739
24.85 0.0231754
24.92 0.0233964
24.99 0.0235105
25.06 0.0235225
25.13 0.0234551
25.2 0.0233355
25.27 0.0231873
25.34 0.0230246
25.41 0.0228461
25.48 0.0226334
25.55 0.0223603
25.62 0.0220144
25.69 0.0216167
25.76 0.0212256
25.83 0.0209191
25.9 0.0207642
25.97 0.0207899
26.04 0.0209742
26.11 0.0212519
26.18 0.0215404
26.25 0.0217721
26.32 0.0219184
26.39 0.0219959
26.46 0.0220513
26.53 0.0221325
26.6 0.0222601
26.67 0.0224198
26.74 0.0225806
26.81 0.0227251
26.88 0.0228661
26.95 0.0230363
27.02 0.0232618
27.09 0.0235405
27.16 0.0238427
27.23 0.0241281
27.3 0.0243647
27.37 0.0245381
27.44 0.0246471
27.51 0.0246921
27.58 0.0246643
27.65 0.024544
27.72 0.024312
27.79 0.0239678
27.86 0.023543
27.93 0.023096
28 0.0226911
28.07 0.0223754
28.14 0.0221681
28.21 0.0220662
28.28 0.0220581
28.35 0.0221339
28.42 0.0222854
28.49 0.0224975
28.56 0.0227404
28.63 0.0229706
28.7 0.0231456
28.77 0.023242
28.84 0.0232638
28.91 0.0232331
28.98 0.023169
29.05 0.0230709
29.12 0.0229209
29.19 0.0227006
29.26 0.0224111
29.33 0.0220773
29.4 0.0217345
29.47 0.0214091
29.54 0.0211075
29.61 0.0208232
29.68 0.0205537
29.75 0.0203115
29.82 0.0201202
29.89 0.0199984
29.96 0.0199458
30.03 0.0199409
30.1 0.0199514
30.17 0.0199478
30.24 0.0199143
30.31 0.0198528
30.38 0.019782
30.45 0.01973
30.52 0.0197215
30.59 0.0197657
30.66 0.0198521
30.73 0.0199569
30.8 0.0200579
30.87 0.0201465
30.94 0.0202305
31.01 0.0203261
31.08 0.0204452
31.15 0.0205844
31.22 0.0207237
31.29 0.0208356
31.36 0.0208989
31.43 0.0209082
31.5 0.020874
31.57 0.0208137
31.64 0.0207423
31.71 0.0206661
31.78 0.0205814
31.85 0.0204772
31.92 0.0203415
31.99 0.0201683
32.06 0.0199638
32.13 0.019744
32.2 0.0195264
32.27 0.0193205
32.34 0.0191245
32.41 0.0189314
32.48 0.0187349
32.55 0.0185301
32.62 0.0183113
32.69 0.018073
32.76 0.0178177
32.83 0.0175613
32.9 0.0173299
32.97 0.017146
33.04 0.0170135
33.11 0.0169128
33.18 0.0168091
33.25 0.0166682
33.32 0.016471
33.39 0.0162187
33.46 0.0159271
33.53 0.0156163
33.6 0.0153013
33.67 0.0149907
33.74 0.0146889
33.81 0.0143989
33.88 0.0141227
33.95 0.0138602
34.02 0.0136103
34.09 0.0133734
34.16 0.0131532
34.23 0.0129548
34.3 0.012781
34.37 0.0126299
34.44 0.0124959
34.51 0.0123736
34.58 0.0122602
34.65 0.0121527
34.72 0.0120435
34.79 0.0119198
34.86 0.0117688
34.93 0.0115852
35 0.011373
35.07 0.0111402
35.14 0.0108925
35.21 0.0106322
35.28 0.0103625
35.35 0.0100927
35.42 0.00983736
35.49 0.00960925
35.56 0.00941211
35.63 0.00923764
35.7 0.00906943
35.77 0.00889043
35.84 0.00869002
35.91 0.00846818
35.98 0.00823661
36.05 0.00801657
36.12 0.00783276
36.19 0.00770371
36.26 0.00763176
36.33 0.00759826
36.4 0.00756853
36.47 0.00750584
36.54 0.0073873
36.61 0.00721248
36.68 0.00700041
36.75 0.00677742
36.82 0.00656317
36.89 0.00636246
36.96 0.0061668
37.03 0.00596402
37.1 0.00574901
37.17 0.00552785
37.24 0.00531348
37.31 0.00511757
37.38 0.00494497
37.45 0.00479302
37.52 0.00465368
37.59 0.00451557
37.66 0.00436598
37.73 0.00419404
37.8 0.00399429
37.87 0.00376786
37.94 0.00351966
38.01 0.00325392
38.08 0.00297168
38.15 0.00267173
38.22 0.0023532
38.29 0.00201781
38.36 0.0016715
38.43 0.00132552
38.5 0.000996355
38.57 0.000702815
38.64 0.000460889
38.71 0.000278644
38.78 0.000154187
38.85 7.76037e-05
38.92 3.53378e-05
38.99 1.44926e-05
39.06 5.33253e-06
39.13 1.75467e-06
39.2 5.14982e-07
39.27 1.34683e-07
39.34 3.23765e-08
39.41 1.28454e-08
39.48 3.23761e-08
39.55 1.3468e-07
39.62 5.14955e-07
39.69 1.75448e-06
39.76 5.33138e-06
39.83 1.44864e-05
39.9 3.53078e-05
39.97 7.74753e-05
40.04 0.000153701
40.11 0.000277014
40.18 0.000456026
40.25 0.000689892
40.32 0.000965693
40.39 0.00126037
40.46 0.00154708
40.53 0.00180357
40.6 0.00201939
40.67 0.00219962
40.74 0.00236398
40.81 0.00254022
40.88 0.00275222
40.95 0.00300695
41.02 0.00328805
41.09 0.00356234
41.16 0.00379671
41.23 0.00397478
41.3 0.00410237
41.37 0.00419983
41.44 0.00428869
41.51 0.00438172
41.58 0.00448022
41.65 0.00457679
41.72 0.00466039
41.79 0.00472212
41.86 0.00475973
41.93 0.00477836
42 0.00478555
42.07 0.00478327
42.14 0.00476372
42.21 0.00471409
42.28 0.00462856
42.35 0.00451932
42.42 0.00441758
42.49 0.00436199
42.56 0.00437994
42.63 0.00447266
42.7 0.00461405
42.77 0.00476528
42.84 0.00489591
42.91 0.00499754
42.98 0.00508205
43.05 0.00516928
43.12 0.00527593
43.19 0.00541265
43.26 0.00558665
43.33 0.00580193
43.4 0.00605508
43.47 0.00633135
43.54 0.00660797
43.61 0.00686482
43.68 0.00709609
43.75 0.00731451
43.82 0.0075445
43.89 0.0078077
43.96 0.00810926
44.03 0.00843268
44.1 0.00874715
44.17 0.00902352
44.24 0.00924931
44.31 0.00943312
44.38 0.00959619
44.45 0.0097577
44.52 0.00992412
44.59 0.0100884
44.66 0.0102375
44.73 0.0103614
44.8 0.0104585
44.87 0.0105372
44.94 0.0106134
45.01 0.010707
45.08 0.0108333
45.15 0.010993
45.22 0.0111674
45.29 0.0113246
45.36 0.0114361
45.43 0.0114925
45.5 0.0115089
45.57 0.0115165
45.64 0.0115472
45.71 0.0116179
45.78 0.011722
45.85 0.0118301
45.92 0.0119029
45.99 0.0119111
46.06 0.0118524
46.13 0.011754
46.2 0.0116569
46.27 0.011591
46.34 0.0115585
46.41 0.0115361
46.48 0.0114924
46.55 0.0114082
46.62 0.0112851
46.69 0.0111393
46.76 0.0109872
46.83 0.0108366
46.9 0.0106888
46.97 0.0105471
47.04 0.0104227
47.11 0.0103316
47.18 0.0102853
47.25 0.0102838
47.32 0.0103188
47.39 0.0103823
47.46 0.0104731
47.53 0.0105943
47.6 0.0107429
47.67 0.0109055
47.74 0.0110627
47.81 0.011201
47.88 0.0113199
47.95 0.0114287
48.02 0.0115356
48.09 0.0116386
48.16 0.0117231
48.23 0.0117693
48.3 0.011764
48.37 0.0117135
48.44 0.0116481
48.51 0.0116128
48.58 0.0116463
48.65 0.0117639
48.72 0.0119512
48.79 0.012175
48.86 0.0123985
48.93 0.0125929
49 0.0127397
49.07 0.0128298
49.14 0.0128636
49.21 0.0128534
49.28 0.0128227
49.35 0.0127997
49.42 0.0128071
49.49 0.012855
49.56 0.0129422
49.63 0.0130601
49.7 0.0131967
49.77 0.0133382
49.84 0.0134701
49.91 0.013579
49.98 0.0136561
50.05 0.0137013
50.12 0.0137261
50.19 0.0137516
50.26 0.0138022
50.33 0.0138964
50.4 0.0140405
50.47 0.0142261
50.54 0.0144335
50.61 0.0146389
50.68 0.0148243
50.75 0.0149854
50.82 0.0151327
50.89 0.0152829
50.96 0.0154486
51.03 0.0156321
51.1 0.0158266
51.17 0.0160191
51.24 0.0161926
51.31 0.0163307
51.38 0.0164252
51.45 0.0164849
51.52 0.0165347
51.59 0.0166052
51.66 0.0167183
51.73 0.0168814
51.8 0.0170883
51.87 0.0173251
51.94 0.0175714
52.01 0.017803
52.08 0.017997
52.15 0.0181429
52.22 0.0182493
52.29 0.0183417
52.36 0.0184492
52.43 0.0185895
52.5 0.0187601
52.57 0.0189413
52.64 0.0191066
52.71 0.0192351
52.78 0.0193198
52.85 0.0193676
52.92 0.0193921
52.99 0.0194025
53.06 0.0193973
53.13 0.019368
53.2 0.0193096
53.27 0.0192299
53.34 0.0191466
53.41 0.0190761
53.48 0.0190224
53.55 0.018978
53.62 0.0189339
53.69 0.0188909
53.76 0.0188602
53.83 0.0188553
53.9 0.0188827
53.97 0.0189394
54.04 0.0190161
54.11 0.0191015
54.18 0.0191837
54.25 0.019251
54.32 0.0192947
54.39 0.0193147
54.46 0.0193221
54.53 0.0193352
54.6 0.0193686
54.67 0.019423
54.74 0.0194835
54.81 0.0195292
54.88 0.0195457
54.95 0.0195325
55.02 0.0195
55.09 0.0194603
55.16 0.0194194
55.23 0.0193753
55.3 0.0193221
55.37 0.0192551
55.44 0.0191744
55.51 0.0190846
55.58 0.0189912
55.65 0.0188969
55.72 0.0188008
55.79 0.0187014
55.86 0.018603
55.93 0.0185167
56 0.0184549
56.07 0.0184204
56.14 0.0183999
56.21 0.018369
56.28 0.0183058
56.35 0.0182046
56.42 0.0180783
56.49 0.0179516
56.56 0.0178502
56.63 0.0177922
56.7 0.0177825
56.77 0.0178097
56.84 0.017849
56.91 0.0178717
56.98 0.0178598
57.05 0.0178146
57.12 0.0177549
57.19 0.0177043
57.26 0.0176771
57.33 0.0176696
57.4 0.0176624
57.47 0.0176314
57.54 0.0175608
57.61 0.0174511
57.68 0.017317
57.75 0.0171795
57.82 0.017057
57.89 0.0169603
57.96 0.0168918
58.03 0.0168506
58.1 0.0168376
58.17 0.0168573
58.24 0.0169116
58.31 0.0169897
58.38 0.0170654
58.45 0.0171083
58.52 0.0170991
58.59 0.0170402
58.66 0.0169504
58.73 0.0168527
58.8 0.0167633
58.87 0.0166879
58.94 0.0166255
59.01 0.0165731
59.08 0.0165306
59.15 0.0165024
59.22 0.0164977
59.29 0.0165272
59.36 0.0165984
59.43 0.0167086
59.5 0.0168419
59.57 0.0169713
59.64 0.0170681
59.71 0.017116
59.78 0.0171189
59.85 0.0170974
59.92 0.0170737
59.99 0.0170574
60.06 0.0170408
60.13 0.0170056
60.2 0.016937
60.27 0.0168331
60.34 0.0167094
60.41 0.0165929
60.48 0.0165099
60.55 0.0164702
60.62 0.016459
60.69 0.0164414
60.76 0.0163802
60.83 0.0162545
60.9 0.0160693
60.97 0.015852
61.04 0.0156385
61.11 0.0154591
61.18 0.0153291
61.25 0.0152492
61.32 0.0152086
61.39 0.0151912
61.46 0.0151775
61.53 0.0151471
61.6 0.0150821
61.67 0.014971
61.74 0.0148129
61.81 0.0146172
61.88 0.0143992
61.95 0.0141733
62.02 0.013949
62.09 0.0137288
62.16 0.0135103
62.23 0.0132905
62.3 0.0130702
62.37 0.0128558
62.44 0.0126561
62.51 0.0124761
62.58 0.0123113
62.65 0.0121487
62.72 0.0119731
62.79 0.0117769
62.86 0.0115662
62.93 0.0113587
63 0.0111748
63.07 0.011027
63.14 0.0109148
63.21 0.0108253
63.28 0.0107375
63.35 0.0106286
63.42 0.0104819
63.49 0.0102935
63.56 0.0100744
63.63 0.00984504
63.7 0.00962505
63.77 0.0094234
63.84 0.00923578
63.91 0.00905127
63.98 0.00886368
64.05 0.00867829
64.12 0.00850823
64.19 0.00836421
64.26 0.00824711
64.33 0.00814917
64.4 0.00806001
64.47 0.00797031
64.54 0.00787141
64.61 0.00775556
64.68 0.00762016
64.75 0.0074727
64.82 0.00732982
64.89 0.00720822
64.96 0.00711319
65.03 0.00703347
65.1 0.00694697
65.17 0.00683374
65.24 0.00668758
65.31 0.00651863
65.38 0.00634585
65.45 0.00618566
65.52 0.00604459
65.59 0.00591902
65.66 0.00580003
65.73 0.00567845
65.8 0.00554739
65.87 0.00540186
65.94 0.00523745
66.01 0.00505021
66.08 0.00483904
66.15 0.00460889
66.22 0.00437164
66.29 0.00414251
66.36 0.0039333
66.43 0.00374582
66.5 0.00356924
66.57 0.00338237
66.64 0.00315994
66.71 0.00288048
66.78 0.0025339
66.85 0.00212697
66.92 0.00168476
66.99 0.00124591
67.06 0.000851813
67.13 0.000533763
67.2 0.000304289
67.27 0.000156855
67.34 7.27479e-05
67.41 3.02362e-05
67.48 1.12266e-05
67.55 3.71454e-06
67.62 1.09307e-06
67.69 2.85634e-07
67.76 6.62011e-08
67.83 1.35957e-08
67.9 2.47221e-09
67.97 3.97797e-10
68.04 5.66133e-11
68.11 7.12342e-12
68.18 7.92205e-13
68.25 7.78493e-14
68.32 6.75855e-15
68.39 5.18931e-16
68.46 4.77857e-17
68.53 2.16614e-16
68.6 3.20694e-15
68.67 4.23899e-14
68.74 4.95561e-13
68.81 5.12465e-12
68.88 4.68871e-11
68.95 3.79624e-10
69.02 2.72056e-09
69.09 1.72607e-08
69.16 9.69727e-08
69.23 4.82525e-07
69.3 2.12697e-06
69.37 8.3074e-06
69.44 2.87556e-05
69.51 8.82335e-05
69.58 0.00024006
69.65 0.000579351
69.72 0.00124089
69.79 0.00236086
69.86 0.0039955
69.93 0.00602945
70 0.00814591
